Comment:    Automatically converted from EXFOR
            by the IAEA-NDS EXFOR Web-Retrieval System
            program version-2012/10/18, by V.Zerkin.
            "Excited levels between 11.7 and 13.0 MeV of 22Ne
             investigated by 18O+alpha reaction"
            S.Gorodetzky,  M.Port,  J.Graff,  J.M.Thirion, 
            G.Chouraqui
            EXFOR: D0272002    Created: 2006-06-24  Updated: 2006-06-27
            X4Reaction:8-O-18(A,EL)8-O-18,,DA; X4Points:927
            Data converted from C.M. to Lab. 
            LevelEnergy: 0.00

Version:      R33
X4Number:     D0272002
Source:       S.Gorodetzky+(1968), Jour. Journal de Physique, Vol.29, p.271
Reaction:     18O(a,a0)18O
Distribution: Energy
Sigfactors:   1.00, 0.00
Enfactors:    1.00, 0.00, 0.00, 0.00
Units:        mb
Composition:
Masses:       4.0, 18.0, 4.0, 18.0
Zeds:         2, 8, 2, 8
Qvalue:       -0.0, 0.00, 0.00, 0.00, 0.00
Theta:        77.5
Data:
 2874.00,     0.00, 236.6616,  35.4992
 2890.00,     0.00, 223.3346,  33.5002
 2903.00,     0.00, 200.5497,  30.0825
 2919.00,     0.00, 189.5872,  28.4381
 2935.00,     0.00, 170.0266,   25.504
 2948.00,     0.00, 192.8115,  28.9217
 2959.00,     0.00, 200.7647,  30.1147
 2966.00,     0.00, 211.8347,  31.7752
 2980.00,     0.00, 222.0449,  33.3067
 2995.00,     0.00, 225.2692,  33.7904
 2996.00,     0.00, 205.6011,  30.8402
 3018.00,     0.00, 219.0356,  32.8553
 3022.00,     0.00,  208.073,   31.211
 3052.00,     0.00, 215.2739,  32.2911
 3098.00,     0.00, 198.0778,  29.7117
 3109.00,     0.00, 199.6899,  29.9535
 3124.00,     0.00, 197.3255,  29.5988
 3141.00,     0.00, 183.2461,  27.4869
 3155.00,     0.00, 146.2745,  21.9412
 3172.00,     0.00,  117.256,  17.5884
 3188.00,     0.00,  103.166,  15.4754
 3200.00,     0.00,  93.7618,  14.0643
 3217.00,     0.00, 104.8318,  15.7248
 3228.00,     0.00, 111.1299,  16.6695
 3247.00,     0.00, 119.0831,  17.8625
 3261.00,     0.00, 123.8121,  18.5718
 3276.00,     0.00, 122.3074,  18.3461
 3294.00,     0.00, 131.8727,  19.7809
 3306.00,     0.00,  124.027,  18.6041
 3332.00,     0.00, 123.2747,  18.4912
 3358.00,     0.00, 134.4522,  20.1678
 3365.00,     0.00,  137.569,  20.6353
 3391.00,     0.00, 146.2745,  21.9412
 3406.00,     0.00, 147.1343,  22.0701
 3417.00,     0.00, 150.3586,  22.5538
 3432.00,     0.00, 145.6296,  21.8444
 3451.00,     0.00, 140.1484,  21.0223
 3463.00,     0.00, 142.6203,   21.393
 3478.00,     0.00, 138.7512,  20.8127
 3493.00,     0.00, 137.2465,   20.587
 3520.00,     0.00, 132.5176,  19.8776
 3538.00,     0.00, 130.2606,  19.5391
 3557.00,     0.00, 127.1438,  19.0716
 3573.00,     0.00, 124.8868,   18.733
 3592.00,     0.00, 114.6766,  17.2015
 3607.00,     0.00,  113.172,  16.9758
 3626.00,     0.00, 108.5505,  16.2826
 3640.00,     0.00, 121.1252,  18.1688
 3655.00,     0.00, 128.2186,  19.2328
 3674.00,     0.00, 124.4569,  18.6685
 3693.00,     0.00, 122.8448,  18.4267
 3704.00,     0.00, 122.9523,  18.4428
 3723.00,     0.00, 119.8355,  17.9753
 3739.00,     0.00, 114.3542,  17.1531
 3754.00,     0.00, 112.8495,  16.9274
 3765.00,     0.00, 110.4851,  16.5728
 3780.00,     0.00, 108.2281,  16.2342
 3792.00,     0.00, 106.6804,  16.0021
 3807.00,     0.00, 102.8006,  15.4206
 3819.00,     0.00,  95.7609,  14.3641
 3834.00,     0.00,  87.9367,  13.1905
 3853.00,     0.00,  87.2166,   13.083
 3867.00,     0.00,   99.845,  14.9767
 3889.00,     0.00, 111.6673,  16.7501
 3903.00,     0.00,  117.256,  17.5884
 3918.00,     0.00, 116.5037,  17.4756
 3941.00,     0.00,  114.999,  17.2499
 3956.00,     0.00, 112.7421,  16.9113
 3967.00,     0.00, 114.3542,  17.1531
 3990.00,     0.00, 106.5407,  15.9806
 4006.00,     0.00, 102.6608,  15.3991
 4021.00,     0.00,  98.7702,  14.8155
 4040.00,     0.00,  94.1165,   14.118
 4052.00,     0.00,  84.7124,  12.7069
 4064.00,     0.00,  83.1755,  12.4769
 4072.00,     0.00,  76.1143,  11.4171
 4083.00,     0.00,  74.5774,  11.1872
 4091.00,     0.00,  70.6761,  10.6014
 4099.00,     0.00,  58.1121,   8.7168
 4111.00,     0.00,  52.6416,   7.8962
 4122.00,     0.00,  55.8229,   8.3734
 4129.00,     0.00,  58.9934,    8.849
 4143.00,     0.00,  72.4172,  10.8626
 4154.00,     0.00,  82.6811,  12.4027
 4164.00,     0.00,  92.1497,  13.8225
 4179.00,     0.00,  93.7726,  14.0654
 4183.00,     0.00,  91.4296,   13.715
 4206.00,     0.00,  86.7759,  13.0164
 4210.00,     0.00,  75.7811,  11.3677
 4222.00,     0.00,  70.3106,  10.5466
 4234.00,     0.00,  62.4864,    9.373
 4249.00,     0.00,  54.6622,   8.1993
 4254.00,     0.00,  50.7393,   7.6109
 4258.00,     0.00,  46.8272,   7.0241
 4269.00,     0.00,  41.3567,   6.2035
 4281.00,     0.00,  37.4553,   5.6183
 4300.00,     0.00,  36.7352,   5.5103
 4303.00,     0.00,  43.8179,   6.5727
 4326.00,     0.00,  42.3239,   6.3486
 4341.00,     0.00,  41.5824,   6.2374
 4348.00,     0.00,  38.4656,   5.7698
 4356.00,     0.00,  33.7689,   5.0653
 4371.00,     0.00,  30.6736,    4.601
 4386.00,     0.00,  29.1474,   4.3721
 4393.00,     0.00,  36.2516,   5.4377
 4407.00,     0.00,  50.4491,   7.5674
 4417.00,     0.00,  69.3648,  10.4047
 4427.00,     0.00,  89.0652,  13.3603
 4438.00,     0.00,    96.18,  14.4275
 4452.00,     0.00, 107.2393,  16.0859
 4471.00,     0.00, 110.4851,  16.5728
 4482.00,     0.00,  107.336,  16.1009
 4498.00,     0.00,  95.5889,  14.3383
 4510.00,     0.00,  82.2512,  12.3371
 4529.00,     0.00,  76.8129,  11.5225
 4541.00,     0.00,  70.5578,  10.5837
 4556.00,     0.00,    72.17,   10.826
 4567.00,     0.00,  69.8485,  10.4773
 4579.00,     0.00,   64.378,   9.6567
 4599.00,     0.00,  53.4262,   8.0139
 4610.00,     0.00,  47.9557,   7.1934
 4619.00,     0.00,   33.038,   4.9557
 4630.00,     0.00,  29.1474,   4.3721
 4641.00,     0.00,  34.6824,   5.2024
 4655.00,     0.00,  54.4042,   8.1606
 4668.00,     0.00,  78.8335,  11.8256
 4678.00,     0.00,  94.6002,    14.19
 4693.00,     0.00, 104.8748,  15.7312
 4704.00,     0.00, 106.4762,   15.972
 4719.00,     0.00, 105.7454,  15.8623
 4727.00,     0.00,  97.1151,  14.5673
 4743.00,     0.00,  86.1526,  12.9229
 4754.00,     0.00,  87.7647,  13.1647
 4773.00,     0.00,  85.4647,  12.8197
 4780.00,     0.00,  83.1217,  12.4683
 4796.00,     0.00,  76.8881,  11.5332
 4815.00,     0.00,  74.5774,  11.1872
 4834.00,     0.00,  69.9237,  10.4886
 4845.00,     0.00,  66.8177,  10.0227
 4861.00,     0.00,  60.5733,    9.086
 4881.00,     0.00,  47.2571,   7.0886
 4911.00,     0.00,  37.1329,   5.5699
 4934.00,     0.00,  36.4128,   5.4619
 4945.00,     0.00,  38.0249,   5.7037
 4960.00,     0.00,  35.7142,   5.3571
 4975.00,     0.00,   34.188,   5.1282
EndData:

